wavelength,excitation,dichroic,emission
265,,,3.47E-05
265.2,,,3.69E-05
265.4,,,3.92E-05
265.6,,,4.17E-05
265.8,,,4.43E-05
266,,,4.70E-05
266.2,,,5.00E-05
266.4,,,5.31E-05
266.6,,,5.64E-05
266.8,,,5.99E-05
267,,,6.37E-05
267.2,,,5.78E-05
267.4,,,4.86E-05
267.6,,,4.09E-05
267.8,,,3.44E-05
268,,,2.89E-05
268.2,,,2.43E-05
268.4,,,2.04E-05
268.6,,,1.72E-05
268.8,,,1.44E-05
269,,,1.21E-05
269.2,,,1.02E-05
269.4,,,8.58E-06
269.6,,,7.21E-06
269.8,,,6.06E-06
270,4.65E-06,,5.10E-06
270.2,4.61E-06,,4.29E-06
270.4,4.57E-06,,3.60E-06
270.6,4.53E-06,,3.03E-06
270.8,4.49E-06,,2.55E-06
271,4.45E-06,,2.51E-06
271.2,4.41E-06,,2.48E-06
271.4,4.37E-06,,2.46E-06
271.6,4.33E-06,,2.43E-06
271.8,4.29E-06,,2.41E-06
272,4.25E-06,,2.39E-06
272.2,4.22E-06,,2.37E-06
272.4,4.18E-06,,2.34E-06
272.6,4.14E-06,,2.32E-06
272.8,4.11E-06,,2.30E-06
273,4.07E-06,,2.28E-06
273.2,4.03E-06,,2.25E-06
273.4,3.97E-06,,2.23E-06
273.6,3.91E-06,,2.21E-06
273.8,3.85E-06,,2.19E-06
274,3.79E-06,,2.17E-06
274.2,3.73E-06,,2.15E-06
274.4,3.67E-06,,2.13E-06
274.6,3.61E-06,,2.10E-06
274.8,3.56E-06,,2.07E-06
275,3.50E-06,,2.05E-06
275.2,3.45E-06,,2.03E-06
275.4,3.39E-06,,2.02E-06
275.6,3.34E-06,,2.00E-06
275.8,3.29E-06,,1.98E-06
276,3.24E-06,,1.96E-06
276.2,3.19E-06,,1.94E-06
276.4,3.14E-06,,1.92E-06
276.6,3.09E-06,,1.90E-06
276.8,3.04E-06,,1.88E-06
277,3.00E-06,,1.86E-06
277.2,2.95E-06,,1.84E-06
277.4,2.90E-06,,1.82E-06
277.6,2.86E-06,,1.80E-06
277.8,2.81E-06,,1.78E-06
278,2.75E-06,,1.76E-06
278.2,2.67E-06,,1.74E-06
278.4,2.60E-06,,1.72E-06
278.6,2.53E-06,,1.70E-06
278.8,2.46E-06,,1.68E-06
279,2.40E-06,,1.67E-06
279.2,2.33E-06,,1.65E-06
279.4,2.27E-06,,1.82E-06
279.6,2.21E-06,,2.18E-06
279.8,2.15E-06,,2.60E-06
280,2.09E-06,,3.12E-06
280.2,2.04E-06,,3.73E-06
280.4,1.98E-06,,4.47E-06
280.6,1.93E-06,,5.34E-06
280.8,1.88E-06,,6.40E-06
281,1.83E-06,,7.66E-06
281.2,1.78E-06,,9.16E-06
281.4,1.73E-06,,1.10E-05
281.6,1.68E-06,,1.31E-05
281.8,1.64E-06,,1.57E-05
282,1.59E-06,,1.88E-05
282.2,1.55E-06,,2.25E-05
282.4,1.51E-06,,2.69E-05
282.6,1.47E-06,,3.23E-05
282.8,1.43E-06,,3.86E-05
283,1.40E-06,,4.62E-05
283.2,1.36E-06,,3.60E-05
283.4,1.33E-06,,2.65E-05
283.6,1.30E-06,,1.95E-05
283.8,1.27E-06,,1.44E-05
284,1.23E-06,,1.06E-05
284.2,1.20E-06,,7.78E-06
284.4,1.17E-06,,5.73E-06
284.6,1.15E-06,,4.22E-06
284.8,1.12E-06,,3.10E-06
285,1.09E-06,,2.28E-06
285.2,1.06E-06,,1.68E-06
285.4,1.04E-06,,1.24E-06
285.6,1.01E-06,,9.99E-07
285.8,9.91E-07,,9.81E-07
286,9.67E-07,,9.64E-07
286.2,9.45E-07,,9.46E-07
286.4,9.23E-07,,9.29E-07
286.6,9.01E-07,,9.13E-07
286.8,8.80E-07,,8.97E-07
287,8.59E-07,,8.80E-07
287.2,8.39E-07,,8.65E-07
287.4,8.19E-07,,8.49E-07
287.6,8.00E-07,,8.34E-07
287.8,7.81E-07,,8.19E-07
288,7.60E-07,,8.04E-07
288.2,7.39E-07,,7.90E-07
288.4,7.19E-07,,7.76E-07
288.6,7.00E-07,,7.62E-07
288.8,6.80E-07,,7.48E-07
289,6.62E-07,,7.35E-07
289.2,6.44E-07,,7.22E-07
289.4,6.26E-07,,7.08E-07
289.6,6.09E-07,,6.93E-07
289.8,5.93E-07,,6.78E-07
290,5.76E-07,,6.64E-07
290.2,5.61E-07,,6.50E-07
290.4,5.45E-07,,6.37E-07
290.6,5.30E-07,,6.24E-07
290.8,5.16E-07,,6.11E-07
291,5.02E-07,,5.98E-07
291.2,4.88E-07,,5.85E-07
291.4,4.75E-07,,5.73E-07
291.6,4.62E-07,,5.61E-07
291.8,4.49E-07,,5.50E-07
292,4.37E-07,,5.38E-07
292.2,4.25E-07,,5.27E-07
292.4,4.13E-07,,5.16E-07
292.6,4.33E-07,,5.05E-07
292.8,4.78E-07,,4.95E-07
293,5.27E-07,,4.84E-07
293.2,5.82E-07,,6.05E-07
293.4,6.42E-07,,7.65E-07
293.6,7.08E-07,,9.67E-07
293.8,7.81E-07,,1.22E-06
294,8.61E-07,,1.54E-06
294.2,9.50E-07,,1.95E-06
294.4,1.05E-06,,2.47E-06
294.6,1.16E-06,,3.12E-06
294.8,1.28E-06,,3.94E-06
295,1.41E-06,,4.98E-06
295.2,9.13E-07,,5.25E-06
295.4,5.93E-07,,5.52E-06
295.6,3.85E-07,,5.82E-06
295.8,3.39E-07,,6.13E-06
296,3.35E-07,,6.45E-06
296.2,3.32E-07,,6.80E-06
296.4,3.28E-07,,7.16E-06
296.6,3.25E-07,,7.54E-06
296.8,3.21E-07,,7.94E-06
297,3.18E-07,,8.36E-06
297.2,3.15E-07,,8.80E-06
297.4,3.11E-07,,9.27E-06
297.6,3.08E-07,,9.76E-06
297.8,3.05E-07,,1.03E-05
298,3.01E-07,,1.08E-05
298.2,2.98E-07,,9.30E-06
298.4,2.95E-07,,7.89E-06
298.6,2.92E-07,,6.70E-06
298.8,2.89E-07,,5.69E-06
299,2.86E-07,,4.83E-06
299.2,2.83E-07,,4.10E-06
299.4,2.80E-07,,3.48E-06
299.6,2.77E-07,,2.96E-06
299.8,2.74E-07,,2.51E-06
300,2.71E-07,,2.13E-06
300.2,2.68E-07,,1.81E-06
300.4,2.79E-07,,1.54E-06
300.6,3.09E-07,,1.30E-06
300.8,3.43E-07,,1.11E-06
301,3.80E-07,,9.39E-07
301.2,4.21E-07,,7.97E-07
301.4,4.67E-07,,6.77E-07
301.6,5.18E-07,,5.75E-07
301.8,5.74E-07,,5.32E-07
302,6.36E-07,,6.20E-07
302.2,7.06E-07,,7.23E-07
302.4,7.82E-07,,8.44E-07
302.6,8.67E-07,,9.84E-07
302.8,9.61E-07,,1.15E-06
303,1.07E-06,,1.34E-06
303.2,1.18E-06,,1.56E-06
303.4,1.31E-06,,1.82E-06
303.6,1.45E-06,,2.13E-06
303.8,1.61E-06,,2.48E-06
304,1.79E-06,,2.89E-06
304.2,1.98E-06,,3.38E-06
304.4,2.19E-06,,3.94E-06
304.6,2.43E-06,,4.60E-06
304.8,2.70E-06,,5.36E-06
305,2.94E-06,,6.25E-06
305.2,2.69E-06,,5.78E-06
305.4,2.46E-06,,5.33E-06
305.6,2.25E-06,,4.92E-06
305.8,2.06E-06,,4.52E-06
306,1.89E-06,,4.15E-06
306.2,1.73E-06,,3.81E-06
306.4,1.58E-06,,3.50E-06
306.6,1.44E-06,,3.22E-06
306.8,1.32E-06,,2.96E-06
307,1.21E-06,,2.71E-06
307.2,1.11E-06,,2.49E-06
307.4,1.01E-06,,2.29E-06
307.6,9.28E-07,,2.10E-06
307.8,8.50E-07,,1.93E-06
308,7.78E-07,,1.78E-06
308.2,7.12E-07,,1.63E-06
308.4,6.51E-07,,1.50E-06
308.6,5.96E-07,,1.38E-06
308.8,5.46E-07,,1.26E-06
309,5.00E-07,,1.16E-06
309.2,4.57E-07,,1.07E-06
309.4,4.19E-07,,1.05E-06
309.6,3.83E-07,,1.11E-06
309.8,3.51E-07,,1.17E-06
310,3.21E-07,,1.23E-06
310.2,2.94E-07,,1.30E-06
310.4,2.69E-07,,1.38E-06
310.6,2.46E-07,,1.45E-06
310.8,2.25E-07,,1.53E-06
311,2.06E-07,,1.62E-06
311.2,1.98E-07,,1.71E-06
311.4,2.13E-07,,1.81E-06
311.6,2.29E-07,,1.91E-06
311.8,2.47E-07,,2.01E-06
312,2.66E-07,,2.13E-06
312.2,2.87E-07,,2.25E-06
312.4,3.09E-07,,2.37E-06
312.6,3.33E-07,,2.50E-06
312.8,3.59E-07,,2.64E-06
313,3.86E-07,,2.79E-06
313.2,4.16E-07,,2.76E-06
313.4,4.48E-07,,2.68E-06
313.6,4.83E-07,,2.61E-06
313.8,5.20E-07,,2.54E-06
314,5.60E-07,,2.47E-06
314.2,6.04E-07,,2.41E-06
314.4,6.50E-07,,2.34E-06
314.6,7.00E-07,,2.28E-06
314.8,7.54E-07,,2.22E-06
315,8.13E-07,,2.16E-06
315.2,8.75E-07,,2.10E-06
315.4,9.43E-07,,2.04E-06
315.6,1.02E-06,,1.99E-06
315.8,1.09E-06,,1.93E-06
316,1.14E-06,,1.88E-06
316.2,1.19E-06,,1.83E-06
316.4,1.24E-06,,1.78E-06
316.6,1.30E-06,,1.73E-06
316.8,1.36E-06,,1.67E-06
317,1.41E-06,,1.55E-06
317.2,1.48E-06,,1.43E-06
317.4,1.54E-06,,1.32E-06
317.6,1.61E-06,,1.22E-06
317.8,1.68E-06,,1.13E-06
318,1.75E-06,,1.04E-06
318.2,1.83E-06,,9.62E-07
318.4,1.91E-06,,8.89E-07
318.6,1.99E-06,,8.22E-07
318.8,2.08E-06,,7.59E-07
319,2.17E-06,,7.02E-07
319.2,2.26E-06,,6.48E-07
319.4,2.36E-06,,5.99E-07
319.6,2.46E-06,,5.54E-07
319.8,2.57E-06,,5.12E-07
320,2.68E-06,,4.73E-07
320.2,2.80E-06,,4.37E-07
320.4,2.92E-06,,4.04E-07
320.6,2.67E-06,,3.87E-07
320.8,2.32E-06,,3.86E-07
321,2.01E-06,,3.84E-07
321.2,1.75E-06,,3.83E-07
321.4,1.52E-06,,3.82E-07
321.6,1.32E-06,,3.81E-07
321.8,1.15E-06,,3.80E-07
322,9.95E-07,,3.78E-07
322.2,8.64E-07,,3.77E-07
322.4,7.50E-07,,3.76E-07
322.6,6.52E-07,,3.75E-07
322.8,5.66E-07,,3.74E-07
323,4.92E-07,,3.73E-07
323.2,4.27E-07,,3.72E-07
323.4,3.71E-07,,3.70E-07
323.6,3.22E-07,,3.69E-07
323.8,2.80E-07,,3.68E-07
324,2.43E-07,,3.67E-07
324.2,2.11E-07,,3.66E-07
324.4,1.83E-07,,3.94E-07
324.6,1.59E-07,,4.32E-07
324.8,1.38E-07,,4.74E-07
325,1.20E-07,,5.19E-07
325.2,1.15E-07,,5.69E-07
325.4,1.24E-07,,6.24E-07
325.6,1.34E-07,,6.84E-07
325.8,1.44E-07,,7.50E-07
326,1.55E-07,,8.22E-07
326.2,1.67E-07,,9.01E-07
326.4,1.80E-07,,9.87E-07
326.6,1.94E-07,,1.08E-06
326.8,2.09E-07,,1.19E-06
327,2.25E-07,,1.30E-06
327.2,2.43E-07,,1.43E-06
327.4,2.61E-07,,1.56E-06
327.6,2.81E-07,,1.71E-06
327.8,3.03E-07,,1.88E-06
328,3.26E-07,,1.98E-06
328.2,3.52E-07,,1.77E-06
328.4,3.79E-07,,1.57E-06
328.6,4.08E-07,,1.40E-06
328.8,4.39E-07,,1.25E-06
329,4.73E-07,,1.11E-06
329.2,5.10E-07,,9.89E-07
329.4,5.49E-07,,8.80E-07
329.6,5.91E-07,,7.84E-07
329.8,6.08E-07,,6.98E-07
330,5.30E-07,,6.21E-07
330.2,4.63E-07,,5.53E-07
330.4,4.03E-07,,4.92E-07
330.6,3.52E-07,,4.38E-07
330.8,3.07E-07,,3.90E-07
331,2.68E-07,,3.48E-07
331.2,2.33E-07,,3.09E-07
331.4,2.04E-07,,2.75E-07
331.6,1.78E-07,,2.45E-07
331.8,1.55E-07,,2.45E-07
332,1.35E-07,,2.72E-07
332.2,1.18E-07,,3.01E-07
332.4,1.03E-07,,3.34E-07
332.6,1.08E-07,,3.70E-07
332.8,1.19E-07,,4.09E-07
333,1.30E-07,,4.54E-07
333.2,1.43E-07,,5.02E-07
333.4,1.57E-07,,5.57E-07
333.6,1.73E-07,,6.17E-07
333.8,1.90E-07,,6.83E-07
334,2.09E-07,,7.57E-07
334.2,2.29E-07,,8.38E-07
334.4,2.52E-07,,9.29E-07
334.6,2.77E-07,,1.03E-06
334.8,3.05E-07,,1.14E-06
335,3.35E-07,,1.26E-06
335.2,3.68E-07,,9.36E-07
335.4,4.04E-07,,6.94E-07
335.6,4.44E-07,,5.42E-07
335.8,4.88E-07,,4.98E-07
336,5.34E-07,,4.57E-07
336.2,5.00E-07,,4.20E-07
336.4,4.67E-07,,3.85E-07
336.6,4.37E-07,,3.54E-07
336.8,4.09E-07,,3.25E-07
337,3.82E-07,,2.98E-07
337.2,3.57E-07,,2.74E-07
337.4,3.34E-07,,2.51E-07
337.6,3.12E-07,,2.31E-07
337.8,2.92E-07,,2.12E-07
338,2.73E-07,,1.95E-07
338.2,2.55E-07,,1.79E-07
338.4,2.39E-07,,1.64E-07
338.6,2.23E-07,,1.51E-07
338.8,2.09E-07,,1.38E-07
339,1.95E-07,,1.27E-07
339.2,1.83E-07,,1.17E-07
339.4,1.71E-07,,1.17E-07
339.6,1.60E-07,,1.25E-07
339.8,1.49E-07,,1.34E-07
340,1.40E-07,0.08196,1.43E-07
340.2,1.31E-07,0.07527,1.53E-07
340.4,1.22E-07,0.06034,1.63E-07
340.6,1.14E-07,0.04043,1.74E-07
340.8,1.07E-07,0.0212,1.86E-07
341,1.00E-07,0.00777,1.99E-07
341.2,1.00E-07,0.00237,2.12E-07
341.4,1.00E-07,0.00125,2.27E-07
341.6,1.00E-07,0.00199,2.42E-07
341.8,1.00E-07,0.00344,2.59E-07
342,1.00E-07,0.00439,2.77E-07
342.2,1.00E-07,0.00511,2.96E-07
342.4,1.00E-07,0.00547,3.16E-07
342.6,1.00E-07,0.00538,3.37E-07
342.8,1.00E-07,0.00532,3.60E-07
343,1.00E-07,0.00484,3.85E-07
343.2,1.00E-07,0.00379,3.61E-07
343.4,1.00E-07,0.00273,3.35E-07
343.6,1.00E-07,0.00222,3.12E-07
343.8,1.00E-07,0.00189,2.90E-07
344,1.00E-07,0.00157,2.70E-07
344.2,1.00E-07,0.00099308,2.51E-07
344.4,1.00E-07,0.00030577,2.33E-07
344.6,1.00E-07,4.42E-05,2.17E-07
344.8,1.00E-07,4.39E-05,2.02E-07
345,1.00E-07,4.38E-05,1.88E-07
345.2,1.00E-07,4.35E-05,1.75E-07
345.4,1.00E-07,4.33E-05,1.62E-07
345.6,1.00E-07,4.29E-05,1.51E-07
345.8,1.00E-07,4.25E-05,1.41E-07
346,1.00E-07,4.23E-05,1.31E-07
346.2,1.09E-07,4.20E-05,1.22E-07
346.4,1.18E-07,4.17E-05,1.13E-07
346.6,1.28E-07,4.16E-05,1.05E-07
346.8,1.39E-07,4.16E-05,1.00E-07
347,1.51E-07,4.16E-05,1.00E-07
347.2,1.64E-07,4.18E-05,1.00E-07
347.4,1.78E-07,4.20E-05,1.00E-07
347.6,1.93E-07,4.24E-05,1.00E-07
347.8,2.10E-07,4.29E-05,1.00E-07
348,2.28E-07,4.33E-05,1.00E-07
348.2,2.47E-07,4.37E-05,1.00E-07
348.4,2.68E-07,4.42E-05,1.00E-07
348.6,2.91E-07,4.44E-05,1.00E-07
348.8,3.16E-07,4.45E-05,1.00E-07
349,3.43E-07,4.45E-05,1.00E-07
349.2,3.73E-07,4.43E-05,1.00E-07
349.4,4.05E-07,4.40E-05,1.00E-07
349.6,4.39E-07,4.35E-05,1.00E-07
349.8,4.77E-07,4.29E-05,1.00E-07
350,5.18E-07,4.26E-05,1.00E-07
350.2,5.62E-07,4.21E-05,1.00E-07
350.4,6.10E-07,4.18E-05,1.00E-07
350.6,6.62E-07,4.16E-05,1.08E-07
350.8,7.19E-07,4.17E-05,1.20E-07
351,7.79E-07,4.20E-05,1.33E-07
351.2,7.17E-07,4.24E-05,1.48E-07
351.4,6.61E-07,4.29E-05,1.65E-07
351.6,6.09E-07,4.36E-05,1.84E-07
351.8,5.61E-07,4.44E-05,2.04E-07
352,5.16E-07,4.52E-05,2.27E-07
352.2,4.76E-07,4.60E-05,2.53E-07
352.4,4.38E-07,4.66E-05,2.82E-07
352.6,4.04E-07,4.72E-05,3.13E-07
352.8,3.72E-07,4.74E-05,3.49E-07
353,3.43E-07,4.75E-05,3.88E-07
353.2,3.16E-07,4.72E-05,4.32E-07
353.4,2.91E-07,4.69E-05,4.81E-07
353.6,2.68E-07,4.62E-05,5.35E-07
353.8,2.47E-07,4.56E-05,5.95E-07
354,2.27E-07,4.47E-05,6.63E-07
354.2,2.09E-07,4.38E-05,7.34E-07
354.4,1.93E-07,4.30E-05,7.59E-07
354.6,1.78E-07,4.23E-05,7.85E-07
354.8,1.64E-07,4.16E-05,8.12E-07
355,1.51E-07,4.10E-05,8.39E-07
355.2,1.39E-07,4.06E-05,8.68E-07
355.4,1.28E-07,4.03E-05,8.97E-07
355.6,1.18E-07,0.00056562,9.28E-07
355.8,1.08E-07,0.00115,9.59E-07
356,1.00E-07,0.00141,9.92E-07
356.2,1.06E-07,0.00154,1.03E-06
356.4,1.12E-07,0.00173,1.06E-06
356.6,1.18E-07,0.00157,1.10E-06
356.8,1.25E-07,0.0012,1.13E-06
357,1.32E-07,0.00077098,1.17E-06
357.2,1.40E-07,0.00015049,1.21E-06
357.4,1.48E-07,4.18E-05,1.25E-06
357.6,1.56E-07,4.22E-05,1.30E-06
357.8,1.65E-07,4.26E-05,1.34E-06
358,1.75E-07,4.31E-05,1.28E-06
358.2,1.85E-07,4.36E-05,1.12E-06
358.4,1.96E-07,4.43E-05,9.75E-07
358.6,2.07E-07,4.47E-05,8.50E-07
358.8,2.19E-07,4.52E-05,7.41E-07
359,2.31E-07,4.56E-05,6.46E-07
359.2,2.44E-07,4.59E-05,5.63E-07
359.4,2.58E-07,4.59E-05,4.91E-07
359.6,2.73E-07,4.58E-05,4.28E-07
359.8,2.89E-07,4.55E-05,3.73E-07
360,3.06E-07,4.51E-05,3.25E-07
360.2,3.23E-07,4.45E-05,2.84E-07
360.4,3.42E-07,4.39E-05,2.47E-07
360.6,3.61E-07,4.36E-05,2.16E-07
360.8,3.82E-07,4.33E-05,1.88E-07
361,4.04E-07,4.32E-05,1.64E-07
361.2,4.10E-07,4.36E-05,1.43E-07
361.4,4.17E-07,4.44E-05,1.25E-07
361.6,4.23E-07,4.56E-05,1.09E-07
361.8,4.30E-07,4.74E-05,1.20E-07
362,4.36E-07,4.96E-05,1.39E-07
362.2,4.43E-07,5.22E-05,1.61E-07
362.4,4.50E-07,5.50E-05,1.87E-07
362.6,4.57E-07,5.80E-05,2.16E-07
362.8,4.64E-07,6.09E-05,2.51E-07
363,4.71E-07,6.37E-05,2.90E-07
363.2,4.79E-07,6.60E-05,3.36E-07
363.4,4.86E-07,6.78E-05,3.90E-07
363.6,4.94E-07,6.91E-05,4.52E-07
363.8,5.01E-07,6.99E-05,5.23E-07
364,5.09E-07,7.01E-05,6.06E-07
364.2,5.17E-07,6.94E-05,7.02E-07
364.4,5.25E-07,6.84E-05,8.13E-07
364.6,5.33E-07,6.73E-05,9.42E-07
364.8,5.42E-07,6.59E-05,1.09E-06
365,5.50E-07,6.64E-05,1.26E-06
365.2,5.59E-07,6.76E-05,9.70E-07
365.4,5.67E-07,6.70E-05,7.44E-07
365.6,5.76E-07,6.70E-05,5.71E-07
365.8,5.85E-07,6.74E-05,4.38E-07
366,5.94E-07,6.78E-05,3.36E-07
366.2,6.02E-07,6.82E-05,2.58E-07
366.4,6.09E-07,6.81E-05,1.98E-07
366.6,6.16E-07,6.75E-05,1.52E-07
366.8,6.24E-07,6.65E-05,1.16E-07
367,6.31E-07,6.59E-05,1.00E-07
367.2,6.39E-07,6.56E-05,1.00E-07
367.4,6.47E-07,6.58E-05,1.00E-07
367.6,6.54E-07,6.62E-05,1.00E-07
367.8,6.62E-07,6.64E-05,1.00E-07
368,6.70E-07,6.64E-05,1.00E-07
368.2,6.78E-07,6.59E-05,1.00E-07
368.4,6.87E-07,6.54E-05,1.00E-07
368.6,6.95E-07,6.49E-05,1.00E-07
368.8,7.03E-07,6.44E-05,1.00E-07
369,7.12E-07,6.43E-05,1.00E-07
369.2,7.20E-07,6.43E-05,1.00E-07
369.4,7.29E-07,6.43E-05,1.00E-07
369.6,7.38E-07,6.43E-05,1.00E-07
369.8,7.47E-07,6.41E-05,1.00E-07
370,7.56E-07,0.00025248,1.00E-07
370.2,7.65E-07,0.00044116,1.00E-07
370.4,7.74E-07,0.00047937,1.00E-07
370.6,7.84E-07,0.00063356,1.00E-07
370.8,7.93E-07,0.00084463,1.00E-07
371,8.03E-07,0.00096845,1.00E-07
371.2,8.15E-07,0.00094718,1.00E-07
371.4,8.27E-07,0.00106,1.00E-07
371.6,8.39E-07,0.00094094,1.00E-07
371.8,8.52E-07,0.00057874,1.00E-07
372,8.65E-07,0.00041873,1.00E-07
372.2,8.78E-07,0.000486,1.00E-07
372.4,8.91E-07,0.00025159,1.00E-07
372.6,9.04E-07,6.39E-05,1.00E-07
372.8,9.18E-07,6.35E-05,1.00E-07
373,9.32E-07,6.26E-05,1.00E-07
373.2,9.46E-07,6.16E-05,1.00E-07
373.4,9.60E-07,6.09E-05,1.00E-07
373.6,9.74E-07,6.05E-05,1.00E-07
373.8,9.89E-07,6.04E-05,1.00E-07
374,1.00E-06,6.04E-05,1.00E-07
374.2,1.02E-06,6.07E-05,1.00E-07
374.4,1.03E-06,6.05E-05,1.00E-07
374.6,1.05E-06,6.01E-05,1.01E-07
374.8,1.07E-06,5.97E-05,1.01E-07
375,1.08E-06,6.04E-05,1.02E-07
375.2,1.10E-06,5.94E-05,1.03E-07
375.4,1.11E-06,6.05E-05,1.03E-07
375.6,1.13E-06,5.94E-05,1.04E-07
375.8,1.15E-06,5.92E-05,1.05E-07
376,1.17E-06,5.90E-05,1.05E-07
376.2,1.19E-06,5.86E-05,1.06E-07
376.4,1.22E-06,5.84E-05,1.07E-07
376.6,1.26E-06,5.84E-05,1.08E-07
376.8,1.29E-06,5.90E-05,1.08E-07
377,1.32E-06,5.96E-05,1.09E-07
377.2,1.35E-06,6.03E-05,1.10E-07
377.4,1.39E-06,6.06E-05,1.10E-07
377.6,1.42E-06,6.02E-05,1.11E-07
377.8,1.46E-06,5.94E-05,1.12E-07
378,1.50E-06,5.84E-05,1.13E-07
378.2,1.53E-06,5.73E-05,1.15E-07
378.4,1.57E-06,5.70E-05,1.19E-07
378.6,1.61E-06,5.68E-05,1.23E-07
378.8,1.65E-06,5.70E-05,1.27E-07
379,1.69E-06,5.69E-05,1.31E-07
379.2,1.74E-06,5.70E-05,1.36E-07
379.4,1.78E-06,5.66E-05,1.40E-07
379.6,1.83E-06,5.61E-05,1.45E-07
379.8,1.87E-06,6.38E-05,1.50E-07
380,1.92E-06,5.54E-05,1.55E-07
380.2,1.97E-06,9.90E-05,1.60E-07
380.4,2.02E-06,0.00013292,1.65E-07
380.6,2.07E-06,0.00012595,1.71E-07
380.8,2.12E-06,0.00014636,1.77E-07
381,2.17E-06,0.00024182,1.83E-07
381.2,2.18E-06,0.00016137,1.89E-07
381.4,2.19E-06,0.00013832,1.95E-07
381.6,2.19E-06,0.00011335,2.02E-07
381.8,2.20E-06,6.35E-05,2.09E-07
382,2.21E-06,0.00010183,2.01E-07
382.2,2.22E-06,0.00010993,1.93E-07
382.4,2.22E-06,6.20E-05,1.86E-07
382.6,2.23E-06,5.29E-05,1.78E-07
382.8,2.24E-06,5.24E-05,1.71E-07
383,2.25E-06,5.18E-05,1.64E-07
383.2,2.25E-06,5.12E-05,1.58E-07
383.4,2.26E-06,5.07E-05,1.51E-07
383.6,2.27E-06,5.05E-05,1.45E-07
383.8,2.28E-06,5.04E-05,1.40E-07
384,2.28E-06,5.00E-05,1.34E-07
384.2,2.29E-06,4.99E-05,1.29E-07
384.4,2.30E-06,4.97E-05,1.24E-07
384.6,2.31E-06,5.20E-05,1.19E-07
384.8,2.32E-06,9.38E-05,1.14E-07
385,2.32E-06,0.00010212,1.09E-07
385.2,2.33E-06,0.00019989,1.05E-07
385.4,2.34E-06,0.00028404,1.01E-07
385.6,2.35E-06,0.0003548,1.05E-07
385.8,2.35E-06,0.00040434,1.12E-07
386,2.36E-06,0.00061462,1.19E-07
386.2,2.38E-06,0.00062702,1.26E-07
386.4,2.40E-06,0.00062182,1.34E-07
386.6,2.41E-06,0.0005791,1.43E-07
386.8,2.43E-06,0.00060658,1.52E-07
387,2.45E-06,0.00049168,1.62E-07
387.2,2.47E-06,0.00038426,1.72E-07
387.4,2.49E-06,0.00032322,1.83E-07
387.6,2.50E-06,0.0001371,1.95E-07
387.8,2.52E-06,8.79E-05,2.07E-07
388,2.54E-06,4.55E-05,2.20E-07
388.2,2.56E-06,4.49E-05,2.34E-07
388.4,2.58E-06,4.45E-05,2.49E-07
388.6,2.60E-06,4.42E-05,2.65E-07
388.8,2.61E-06,4.41E-05,2.82E-07
389,2.63E-06,4.37E-05,3.00E-07
389.2,2.65E-06,4.35E-05,3.06E-07
389.4,2.67E-06,4.31E-05,3.13E-07
389.6,2.69E-06,4.26E-05,3.20E-07
389.8,2.71E-06,4.19E-05,3.27E-07
390,2.73E-06,4.20E-05,3.34E-07
390.2,2.75E-06,4.20E-05,3.41E-07
390.4,2.77E-06,4.22E-05,3.48E-07
390.6,2.79E-06,4.25E-05,3.56E-07
390.8,2.81E-06,7.29E-05,3.64E-07
391,2.83E-06,0.00012316,3.72E-07
391.2,2.88E-06,0.00021806,3.80E-07
391.4,2.93E-06,0.00018933,3.88E-07
391.6,2.97E-06,0.00026736,3.96E-07
391.8,3.02E-06,0.00028399,4.05E-07
392,3.07E-06,0.00086795,4.14E-07
392.2,3.12E-06,0.00109,4.23E-07
392.4,3.18E-06,0.00108,4.32E-07
392.6,3.23E-06,0.00123,4.41E-07
392.8,3.28E-06,0.00133,4.51E-07
393,3.34E-06,0.00123,4.61E-07
393.2,3.39E-06,0.00141,4.71E-07
393.4,3.45E-06,0.00139,4.81E-07
393.6,3.51E-06,0.00134,4.92E-07
393.8,3.56E-06,0.00129,5.02E-07
394,3.62E-06,0.00103,5.12E-07
394.2,3.68E-06,0.00093507,4.80E-07
394.4,3.74E-06,0.00090544,4.50E-07
394.6,3.81E-06,0.00067552,4.21E-07
394.8,3.87E-06,0.00073534,3.94E-07
395,3.93E-06,0.00056284,3.69E-07
395.2,4.00E-06,0.00046746,3.46E-07
395.4,4.07E-06,0.00062629,3.24E-07
395.6,4.13E-06,0.00067619,3.04E-07
395.8,4.20E-06,0.00054344,2.84E-07
396,4.27E-06,0.0006458,2.66E-07
396.2,4.27E-06,0.00070733,2.50E-07
396.4,4.28E-06,0.0005887,2.34E-07
396.6,4.28E-06,0.00084471,2.19E-07
396.8,4.28E-06,0.00104,2.05E-07
397,4.28E-06,0.00137,1.92E-07
397.2,4.29E-06,0.00217,1.80E-07
397.4,4.29E-06,0.00308,1.69E-07
397.6,4.29E-06,0.0039,1.58E-07
397.8,4.30E-06,0.00479,1.48E-07
398,4.30E-06,0.00538,1.38E-07
398.2,4.30E-06,0.00605,1.30E-07
398.4,4.30E-06,0.00672,1.21E-07
398.6,4.31E-06,0.00754,1.14E-07
398.8,4.31E-06,0.00822,1.07E-07
399,4.31E-06,0.00916,1.00E-07
399.2,4.32E-06,0.01034,1.00E-07
399.4,4.32E-06,0.01153,1.00E-07
399.6,3.98E-06,0.01291,1.00E-07
399.8,3.05E-06,0.01385,1.00E-07
400,2.34E-06,0.01473,1.00E-07
400.2,1.80E-06,0.0153,1.00E-07
400.4,1.38E-06,0.01529,1.00E-07
400.6,1.06E-06,0.01543,1.00E-07
400.8,8.15E-07,0.01503,1.00E-07
401,6.26E-07,0.01456,1.00E-07
401.2,5.25E-07,0.0143,1.00E-07
401.4,5.23E-07,0.01471,1.00E-07
401.6,5.22E-07,0.0158,1.00E-07
401.8,4.16E-07,0.018,1.00E-07
402,3.14E-07,0.02079,1.00E-07
402.2,3.45E-07,0.02345,1.00E-07
402.4,1.06E-06,0.02579,1.00E-07
